Species	path	Ammon's horn	adipose tissue	adrenal gland	adrenal tissue	adult mammalian kidney	brain	brown adipose tissue	cerebellum	cerebral cortex	colon	embryonic stem cell	female gonad	fibroblast	frontal cortex	heart	heart left ventricle	intestine	kidney	leukocyte	liver	lung	lymph node	multi-cellular organism	muscle of leg	placenta	prefrontal cortex	prostate gland	skeletal muscle tissue	spleen	stomach	testis	thoracic mammary gland	thymus	thyroid gland	zone of skin
mus_musculus	5_1,11_0,11_1,15_1	2.2493793112146536e-07					4.5853265990684954e-07						1.626200507064683e-06			2.3781781385579394e-07					1.2072770592281292e-06	2.5748759861142453e-06														1.3819722995323146e-07
monodelphis_domestica	5_1,11_0,11_1,15_1												4.0692859819022925e-07								1.667510525926482e-06					7.640428048252485e-07						1.8109534278538122e-07				
bos_taurus	5_1,11_0,11_1,15_1					8.179060891276159e-07															2.458080427536043e-06	2.611877811153844e-06					6.271452349307315e-07					4.674138584364412e-07				
gorilla_gorilla	5_1,11_0,11_1,15_1														2.2740644669337884e-07						1.8610437647057298e-06						4.938538680423822e-07									
sus_scrofa	5_1,11_0,11_1,15_1															5.497342309860301e-07					3.1001488926234676e-06	2.0386270776755457e-06														
homo_sapiens	5_1,11_0,11_1,15_1		1.203530905001885e-06	4.7014589531930167e-07	4.43305625486107e-07	5.09503215756372e-07	3.4061383273728395e-07				4.884566235914302e-07		1.354197120505951e-06			6.799806381738579e-07		2.1227134785445007e-06	2.2006129896069124e-06		2.215443768721783e-06	3.3101405028254336e-06	5.651817632012739e-07	1.0173940455753182e-06	1.470522310714692e-07	9.527760218365135e-07	4.1909494312057235e-07				1.994154685083292e-06	7.822365534803238e-07	4.245237252056985e-07		3.73326021535413e-07	
sus_scrofa	5_1,15_1																				1.2616624926665867e-07															
mus_musculus	5_1,15_1																				4.6852230181821375e-08	1.0457364441524608e-08				3.557389460970475e-08										
mus_musculus	5_1,11_0,11_1,11_3	2.980495960253689e-07				1.5554561562873735e-07	8.039353116906908e-07		2.267956123382185e-07	4.4290918342074e-08	1.8758801678590568e-07		2.504669651005695e-06	3.8233517683460726e-08		2.5905610664912174e-07					1.2304206397423938e-06	2.624412311516228e-06				1.7107582434048386e-06			1.1975927058311588e-07	1.9321761843628946e-07		1.0857663255869701e-07				1.4022468343014082e-07
monodelphis_domestica	5_1,11_0,11_1,11_3					2.9188677134595196e-07	7.202987092465583e-07		1.440721156918301e-07				5.244722179756608e-07			9.826917995738671e-08					2.0835940700925584e-06					8.684523297280213e-07						2.2855439684491873e-07				
bos_taurus	5_1,11_0,11_1,11_3					9.332136177603861e-07	3.24170669853606e-07				7.845032534202448e-07					2.0612099972447828e-07					2.6822911223410446e-06	2.7026609596482135e-06					9.450392377925976e-07		1.5270742655653037e-07	3.568292578124696e-07		7.8830174187078e-07				
gorilla_gorilla	5_1,11_0,11_1,11_3					5.309600824285227e-07			2.3435808944134706e-07						2.923797171772013e-07	1.3830408672607983e-07					2.37756482413448e-06						8.134313203723459e-07					6.028687670428073e-07				
sus_scrofa	5_1,11_0,11_1,11_3															6.246979897568524e-07			5.276853644353435e-07		3.099584463846094e-06	2.134187721941587e-06					2.7589754760340745e-07									
homo_sapiens	5_1,11_0,11_1,11_3		1.2838609198207935e-06	6.128977874684116e-07	5.484618383607474e-07	6.634605059555287e-07	4.5676306111758216e-07		5.715386008382227e-08		4.839940915526256e-07		1.668179031296765e-06		1.0883159937101905e-06	7.977551601291685e-07	4.105380899971667e-07	2.5691790337450747e-06	2.881726280034061e-06		2.431569458058663e-06	3.7248556499588778e-06		1.0895538834309064e-06	1.3797856182488146e-07	1.1599925518598779e-06	5.330827506475459e-07				2.3314948860735846e-06	1.1946044762968564e-06	4.1709496710409913e-07		4.79997382843896e-07	
rattus_norvegicus	5_1,11_0,11_1,11_3					1.869763618750103e-07	7.05901391665682e-07				2.89893738488464e-07					5.128458925316749e-07					9.639319358910265e-07	1.3769570826674445e-06							8.685947585997846e-08	2.788107662795275e-07		8.114475607294566e-08				
sus_scrofa	5_1,11_3																				1.2616624926665867e-07															
mus_musculus	5_1,11_3																				4.303721106550391e-08	5.1584226389551385e-08														
mus_musculus	5_1,11_0,11_1,11_3,15_1	2.9140793824268253e-07				2.0994834414639916e-07	8.063073411965113e-07		2.2194734283932904e-07	6.6436377513111e-08	2.3376242746274954e-07		2.7276905416410126e-06	1.3700343836573427e-07		3.560579011117975e-07					1.5379156660538611e-06	3.336454766410426e-06				2.0661933906053793e-06			1.2900753415380595e-07	2.1075870056873308e-07		1.1416075186971847e-07				1.345550020329205e-07
monodelphis_domestica	5_1,11_0,11_1,11_3,15_1					3.0341953148262957e-07	6.194246777335623e-07		1.5136747724866655e-07				4.908778304889187e-07			1.1323536001824617e-07					1.90664452883826e-06					7.412966007186783e-07						2.462316283589232e-07				
bos_taurus	5_1,11_0,11_1,11_3,15_1					9.371471408391119e-07	3.925337401810329e-07				7.979565160746423e-07					2.189709080137724e-07					2.6397082589694593e-06	3.1307533536467912e-06					9.383512331151374e-07		2.0082704250720012e-07	4.5131212394915945e-07		7.693439748890007e-07				
gorilla_gorilla	5_1,11_0,11_1,11_3,15_1					4.970387835842667e-07			2.209052548420799e-07						2.6801474074576785e-07	1.4028922187527186e-07					2.1508483991106807e-06						7.939962673656273e-07					5.215067350948495e-07				
sus_scrofa	5_1,11_0,11_1,11_3,15_1															7.871194670936338e-07			6.156329251745673e-07		2.748814595812053e-06	2.436796428784051e-06					3.6035652028044097e-07									
homo_sapiens	5_1,11_0,11_1,11_3,15_1		1.4049357212954817e-06	6.948479723244373e-07	5.425570681189317e-07	5.920098771748508e-07	4.573159039631308e-07		5.221773910833849e-08		3.697720950211247e-07		1.3832713867198523e-06		8.561405979927858e-07	7.761129423394828e-07	3.644625699208809e-07	2.6103417630637496e-06	2.7146527664280087e-06		2.0129456439016423e-06	3.42727556081645e-06		8.598073946512291e-07	1.3374368311231387e-07	1.0119477029834508e-06	5.098984548316846e-07				2.260287029421625e-06	1.0147438303024142e-06	4.801375443836149e-07		4.904378656505696e-07	
rattus_norvegicus	5_1,11_0,11_1,11_3,15_1					1.6826338526040728e-07	6.460066101965593e-07				2.6427130860991005e-07					4.600114152764789e-07					9.524628106403534e-07	1.1989749092274466e-06							7.524806689022938e-08	2.4017173947135215e-07		6.8987633771694e-08				
sus_scrofa	5_1,15_1																				1.2616624926665867e-07															
mus_musculus	5_1,15_1																				4.6852230181821375e-08	1.0457364441524608e-08				3.557389460970475e-08										
mus_musculus	5_1,11_0,11_3	2.200799167186992e-07				3.61623842535513e-07	4.3997279797733755e-07		9.211821480500431e-08		3.3752167086792283e-07	2.0051104066651914e-07	2.9103114148395257e-06	8.283928831416491e-08		4.793114320792264e-07					2.9034336724160793e-06	5.5569931808604895e-06				3.607969495896882e-06			1.7939072116916843e-07	3.078891920672869e-07		1.1918908476289154e-07		4.0894575837026757e-07		2.4478601804008215e-07
monodelphis_domestica	5_1,11_0,11_3					4.042275006348534e-07	2.638200633214734e-07		1.5171156139458513e-07				5.897777289096031e-07			1.783644547490982e-07					2.287183409781261e-06					9.84659005054773e-07						2.376834784455203e-07				
bos_taurus	5_1,11_0,11_3					1.481258432612091e-06	1.9496366128459872e-07				1.0808222508539525e-06					3.1627642294691503e-07					4.234049644203473e-06	5.717123349758854e-06					6.079271251071791e-07		3.471646048019555e-07	7.653020006882574e-07		6.213981605716764e-07				
gorilla_gorilla	5_1,11_0,11_3					7.411404132215609e-07			2.672661592987866e-07						3.08623034798157e-07	2.4318856277457645e-07					2.5890809644208063e-06						6.188715693668582e-07					3.560226062570526e-07				
sus_scrofa	5_1,11_0,11_3					3.199544182237624e-07										1.2993718186942526e-06			9.234493877618511e-07		5.64442078978324e-06	3.965766737040709e-06					3.519079783003849e-07									
homo_sapiens	5_1,11_0,11_3		2.2259061269896345e-06	8.329228193363378e-07	4.6098053770801677e-07	6.102750714240068e-07	3.0507751346456894e-07		6.157008315381028e-08		7.498744361741299e-07		1.6273061119461217e-06		4.101315153090236e-07	8.558990099829472e-07	5.507813888618629e-07	2.5178720605337027e-06	2.374874280505733e-06		2.887377231476949e-06	4.335100224178244e-06	7.97811958286555e-07	1.263240935213194e-06	1.9373272658689173e-07	1.3816214387761101e-06	2.7036441242614435e-07	6.79432428953988e-07			2.5970928001514057e-06	6.37140523449607e-07	8.412645042353692e-07		5.530433215361744e-07	
rattus_norvegicus	5_1,11_0,11_3					3.0302103404630725e-07	3.4711226174026824e-07				4.350999511434501e-07					4.241063514237891e-07					1.592941467061245e-06	2.656397643385936e-06							1.719976393533542e-07	4.1631015701857044e-07		7.350965010518012e-08				
sus_scrofa	5_1,11_3																				1.2616624926665867e-07															
mus_musculus	5_1,11_3																				4.303721106550391e-08	5.1584226389551385e-08														
mus_musculus	5_1,11_0,11_3,15_1	2.372142661106739e-07				3.6546807159013685e-07	5.644563418895492e-07		1.3054632131755645e-07		3.4910966707637563e-07	1.8228276424229013e-07	3.0724586810753387e-06	1.996639256802949e-07		5.352287162194259e-07					2.7557560299401405e-06	5.528856164271334e-06				3.4494792746669217e-06			1.7184458906807101e-07	2.930534437002126e-07		1.2309709310952197e-07		3.873120254498573e-07		2.0237266464047463e-07
monodelphis_domestica	5_1,11_0,11_3,15_1					3.821576043874564e-07	2.814809032791737e-07		1.588922282361154e-07				5.232167086159662e-07			1.7162093656634032e-07					1.9833875748792955e-06					7.763824746000652e-07						2.5821009326399243e-07				
bos_taurus	5_1,11_0,11_3,15_1					1.3038215250998238e-06	3.291834245775037e-07				9.9998693524858e-07					2.966911595918283e-07					3.66001965242055e-06	5.283092411720077e-06					7.113804897657049e-07		3.465050333210401e-07	7.551215745785813e-07		6.517556650290052e-07				
gorilla_gorilla	5_1,11_0,11_3,15_1					6.258519044982069e-07			2.383596898806172e-07						2.707219603492605e-07	2.1087391762400028e-07					2.216287017626965e-06						6.578114156930627e-07					3.2982195058836037e-07				
sus_scrofa	5_1,11_0,11_3,15_1					3.069417930104269e-07										1.2910425121641612e-06			9.087914609719804e-07		4.3284488570921365e-06	3.758718674464287e-06					4.3918313163743705e-07									
homo_sapiens	5_1,11_0,11_3,15_1		2.0733241265662718e-06	8.688480551883966e-07	4.822679442698394e-07	5.327360445602769e-07	3.563764864763049e-07		5.351651416316923e-08		5.089516592582939e-07		1.2610535589604525e-06		3.2662581381953965e-07	8.076614363121067e-07	4.425995958052498e-07	2.5898580240290598e-06	2.3210602622071065e-06		2.177276221461493e-06	3.734911913915218e-06	5.932668927641033e-07	8.990165995795285e-07	1.6950150004946486e-07	1.11035201130213e-06	3.2702479741212966e-07	5.21604310833723e-07			2.413616353256186e-06	5.831476464061006e-07	7.839314282309667e-07		5.426153190476464e-07	
rattus_norvegicus	5_1,11_0,11_3,15_1					2.393888411697376e-07	3.868489297565758e-07				3.525346404203828e-07					3.832402287861565e-07					1.3679794563369413e-06	1.9926078918931083e-06							1.2813637289589685e-07	3.1895832436132234e-07		5.984518902609976e-08				
sus_scrofa	5_1,15_1																				1.2616624926665867e-07															
mus_musculus	5_1,15_1																				4.6852230181821375e-08	1.0457364441524608e-08				3.557389460970475e-08										
mus_musculus	5_1,11_0,15_1	1.9662007966398991e-07				2.3657245980996335e-07	4.312542910507288e-07				2.2799091660935493e-07	8.202724390903055e-08	2.174499814433989e-06	4.460577063070418e-08		3.9330129304230007e-07					2.061500826128939e-06	4.837455956817556e-06				2.73400075317564e-06			1.3245107306455405e-07	2.409709767687125e-07		8.062629202899695e-08		3.5117492050221377e-07		2.6488247385066343e-07
monodelphis_domestica	5_1,11_0,15_1					3.0341953148262957e-07	2.13445894024577e-07						3.8188764757723413e-07			1.20701195305137e-07					2.587456632899435e-06					1.3348230738718528e-06										
bos_taurus	5_1,11_0,15_1					1.978755967668234e-06	1.1402244735684797e-07				1.4659297604582433e-06					2.242921546434279e-07					5.638633092628997e-06	5.875288715125777e-06					6.110826174817921e-07		1.7010163505098307e-07	5.04993244074416e-07		5.758215290787504e-07				
gorilla_gorilla	5_1,11_0,15_1					7.795312632111442e-07			2.0345081980354254e-07						3.0862303479815704e-07	1.8156269793567702e-07					3.3532134595231912e-06						4.910272102989764e-07					2.7085990505618264e-07				
sus_scrofa	5_1,11_0,15_1					3.3756050276783794e-07										9.370469846352784e-07			9.234493877618513e-07		7.870845403924204e-06	4.969153501834143e-06														
homo_sapiens	5_1,11_0,15_1		3.0191035078943242e-06	1.2196950131656065e-06	5.169658504310034e-07	8.702889327750259e-07	3.45970930487202e-07		6.157008315381028e-08		1.2207566926051706e-06		1.917862308112921e-06			9.502211980492568e-07	6.579828777948465e-07	3.036374745498542e-06	2.8240943588209535e-06	1.1532700172809482e-07	4.042166511628652e-06	5.605922758494877e-06	1.1168241344640111e-06	1.5041229291719102e-06	2.0840565905741721e-07	1.349374281959365e-06	3.5930856528200764e-07	7.229721394934106e-07	3.6046730095606234e-07		2.623054960812682e-06	7.042239547228235e-07	9.810285801621491e-07		6.991297197566672e-07	
rattus_norvegicus	5_1,11_0,15_1					2.3583900980241642e-07	3.3799557521086104e-07				3.9349981810498407e-07					3.860757593698636e-07					1.2646141294731925e-06	2.205093927997795e-06							8.354714570495763e-08	3.178702468286251e-07		6.519873560438831e-08				
sus_scrofa	5_1,15_1																				1.2616624926665867e-07															
mus_musculus	5_1,15_1																				4.6852230181821375e-08	1.0457364441524608e-08				3.557389460970475e-08										
mus_musculus	5_1,11_0,11_1,15_1	2.2493793112146536e-07					4.5853265990684954e-07						1.626200507064683e-06			2.3781781385579394e-07					1.2072770592281292e-06	2.5748759861142453e-06														1.3819722995323146e-07
monodelphis_domestica	5_1,11_0,11_1,15_1												4.0692859819022925e-07								1.667510525926482e-06					7.640428048252485e-07						1.8109534278538122e-07				
bos_taurus	5_1,11_0,11_1,15_1					8.179060891276159e-07															2.458080427536043e-06	2.611877811153844e-06					6.271452349307315e-07					4.674138584364412e-07				
gorilla_gorilla	5_1,11_0,11_1,15_1														2.2740644669337884e-07						1.8610437647057298e-06						4.938538680423822e-07									
sus_scrofa	5_1,11_0,11_1,15_1															5.497342309860301e-07					3.1001488926234676e-06	2.0386270776755457e-06														
homo_sapiens	5_1,11_0,11_1,15_1		1.203530905001885e-06	4.7014589531930167e-07	4.43305625486107e-07	5.09503215756372e-07	3.4061383273728395e-07				4.884566235914302e-07		1.354197120505951e-06			6.799806381738579e-07		2.1227134785445007e-06	2.2006129896069124e-06		2.215443768721783e-06	3.3101405028254336e-06	5.651817632012739e-07	1.0173940455753182e-06	1.470522310714692e-07	9.527760218365135e-07	4.1909494312057235e-07				1.994154685083292e-06	7.822365534803238e-07	4.245237252056985e-07		3.73326021535413e-07	
sus_scrofa	5_1,11_3,15_1																				9.113356204882941e-07															
mus_musculus	5_1,11_3,15_1																				1.2517189780268836e-06	2.7620831787412863e-06														
mus_musculus	5_1,11_0,15_1	1.9662007966398991e-07				2.3657245980996335e-07	4.312542910507288e-07				2.2799091660935493e-07	8.202724390903055e-08	2.174499814433989e-06	4.460577063070418e-08		3.9330129304230007e-07					2.061500826128939e-06	4.837455956817556e-06				2.73400075317564e-06			1.3245107306455405e-07	2.409709767687125e-07		8.062629202899695e-08		3.5117492050221377e-07		2.6488247385066343e-07
monodelphis_domestica	5_1,11_0,15_1					3.0341953148262957e-07	2.13445894024577e-07						3.8188764757723413e-07			1.20701195305137e-07					2.587456632899435e-06					1.3348230738718528e-06										
bos_taurus	5_1,11_0,15_1					1.978755967668234e-06	1.1402244735684797e-07				1.4659297604582433e-06					2.242921546434279e-07					5.638633092628997e-06	5.875288715125777e-06					6.110826174817921e-07		1.7010163505098307e-07	5.04993244074416e-07		5.758215290787504e-07				
gorilla_gorilla	5_1,11_0,15_1					7.795312632111442e-07			2.0345081980354254e-07						3.0862303479815704e-07	1.8156269793567702e-07					3.3532134595231912e-06						4.910272102989764e-07					2.7085990505618264e-07				
sus_scrofa	5_1,11_0,15_1					3.3756050276783794e-07										9.370469846352784e-07			9.234493877618513e-07		7.870845403924204e-06	4.969153501834143e-06														
homo_sapiens	5_1,11_0,15_1		3.0191035078943242e-06	1.2196950131656065e-06	5.169658504310034e-07	8.702889327750259e-07	3.45970930487202e-07		6.157008315381028e-08		1.2207566926051706e-06		1.917862308112921e-06			9.502211980492568e-07	6.579828777948465e-07	3.036374745498542e-06	2.8240943588209535e-06	1.1532700172809482e-07	4.042166511628652e-06	5.605922758494877e-06	1.1168241344640111e-06	1.5041229291719102e-06	2.0840565905741721e-07	1.349374281959365e-06	3.5930856528200764e-07	7.229721394934106e-07	3.6046730095606234e-07		2.623054960812682e-06	7.042239547228235e-07	9.810285801621491e-07		6.991297197566672e-07	
rattus_norvegicus	5_1,11_0,15_1					2.3583900980241642e-07	3.3799557521086104e-07				3.9349981810498407e-07					3.860757593698636e-07					1.2646141294731925e-06	2.205093927997795e-06							8.354714570495763e-08	3.178702468286251e-07		6.519873560438831e-08				
sus_scrofa	5_1,11_3,15_1																				9.113356204882941e-07															
mus_musculus	5_1,11_3,15_1																				1.2517189780268836e-06	2.7620831787412863e-06														
monodelphis_domestica	25_0,20_1,20_2,18_0					2.3009106185324032e-07	2.413975745490184e-07		1.1580822718693382e-07				2.3968938775102123e-07			1.7974574561575907e-07					1.3311903313141533e-06					7.084530886837289e-07						1.0194520461056119e-07				
bos_taurus	25_0,20_1,20_2,18_0					1.2424877285163173e-06	4.45226650758715e-07				9.970381174841082e-07					1.587767133822704e-07					4.086333442255215e-06	3.4072917178394134e-06					6.31352558096882e-07		1.0128932353288396e-07	4.510557732248262e-07		1.9148980329016432e-07				
gorilla_gorilla	25_0,20_1,20_2,18_0					2.6896786743629105e-07									1.0828878413970408e-07						7.913383753736328e-07						1.942053501750797e-07					1.1071894862443615e-07				
sus_scrofa	25_0,20_1,20_2,18_0					3.5618155278871443e-07										1.0494926227915106e-06			1.3485292646680997e-06		6.399828205962271e-06	4.491350280503938e-06					5.492781101857103e-07									
homo_sapiens	25_0,20_1,20_2,18_0		1.424657194254953e-06	5.546039858010403e-07	6.718010864897807e-07	4.488493020959738e-07	3.054930100916569e-07		5.3690459937606965e-08		6.374574751394023e-07		4.677039764595664e-07		1.993134557299303e-07	9.917524742556961e-07	1.606253178520682e-07	3.344226253235371e-06	3.035396526959841e-06		1.1211979823112501e-06	4.25363310444416e-06	5.221625956877996e-07	5.45731844340134e-07	1.473402676516767e-07	5.370841271046867e-07	2.248666753801197e-07	3.1257967478161426e-07	6.956335750840426e-08		2.8287461834339083e-06	2.576473097242614e-07	4.4700435279926196e-07		4.985643291269425e-07	
rattus_norvegicus	25_0,20_1,20_2,18_0					2.5705396211957306e-07	4.558813539856886e-07				4.0154003720412976e-07					3.2904904412533e-07					1.5100364141542137e-06	2.2415638442500043e-06							1.2927174552218117e-07	1.619546232365436e-07		4.29772355852463e-08				
homo_sapiens	25_0,18_0															4.0117248274496975e-08						1.6518723601531056e-07		2.320348900654656e-08												
rattus_norvegicus	25_0,18_0						7.388815956239749e-08														5.84087312175043e-08	3.1407062301953936e-08														
mus_musculus	11_0,11_3,15_1	2.0278507136936237e-07				3.70179586279679e-07	4.5191299021944683e-07		1.3831653293315582e-07		3.436597593603888e-07	2.2785345530286267e-07	2.560963804004669e-06	2.676346237842251e-07		5.157771299833011e-07					2.3709849106195533e-06	4.580997862943078e-06				3.0207640221303305e-06			1.572397282379403e-07	2.2249673594161884e-07		1.1493668736868413e-07		3.151877707687426e-07		1.3167224010872508e-07
monodelphis_domestica	11_0,11_3,15_1					3.2378025011826593e-07	2.0877546089418356e-07		1.5171156139458513e-07				4.438780191690364e-07			1.6789904911587493e-07					1.289605061065653e-06					4.592177637539658e-07						2.3287079220799024e-07				
bos_taurus	11_0,11_3,15_1					8.422869710401706e-07	4.027079047462855e-07				5.693506337024517e-07					2.523716616621275e-07					2.2713294443549198e-06	4.231376013468489e-06					5.839187456065321e-07		3.874393744673932e-07	7.605927305623198e-07		5.278051745508038e-07				
gorilla_gorilla	11_0,11_3,15_1					3.4586552617006165e-07			1.949999857533631e-07						1.7867649383051183e-07	1.8280578415355997e-07					1.1726160965190783e-06						5.618388337762281e-07					2.489907910735382e-07				
sus_scrofa	11_0,11_3,15_1					2.399658136678218e-07										1.199420140333156e-06			7.475542662834029e-07		1.9778391230617335e-06	2.6756980394491535e-06					4.1384632140511125e-07									
homo_sapiens	11_0,11_3,15_1		1.5969307659880817e-06	7.75578068928092e-07	3.117699714715482e-07	2.6305750206578626e-07	2.761591404747032e-07		4.8060495282189665e-08		9.449909165015793e-08		5.99496255999472e-07		1.200866399931842e-07	5.054110121479842e-07	2.2340176560325215e-07	1.6910943199719267e-06	1.3475400948520694e-06		5.564454946216756e-07	1.7791151160600197e-06	1.5574442681677537e-07	3.3745610587071817e-07	1.2260717510551419e-07	6.977736535658548e-07	2.498208346440046e-07	2.2945696637476522e-07			1.5553230577689054e-06	3.305311721582229e-07	6.932441682225023e-07		4.34794558024102e-07	
rattus_norvegicus	11_0,11_3,15_1					1.4845668787696708e-07	2.582419338337649e-07				2.1977368887549315e-07					2.3280679392616977e-07					8.498967972074793e-07	1.1701725137142999e-06							1.1750246300372732e-07	1.8743728835372943e-07		2.998622154956349e-08				
gorilla_gorilla	11_0,15_1					3.732378652677909e-07			8.18225414719597e-08						1.6243317620955625e-07	9.611521130647309e-08					2.402798059203643e-06						1.3229784107122088e-07					5.0235540494360535e-08				
sus_scrofa	11_0,15_1					2.342272538400388e-07										3.9980671344438506e-07			6.156329251745675e-07		6.7120224826954686e-06	4.013547059173732e-06														
mus_musculus	11_0,15_1	8.716750373468295e-08				1.1709987740887392e-07	7.296553687170332e-08	4.255901211340138e-08			9.597235071036064e-08	7.291310569691606e-08	2.5355119365129986e-07	2.5489011788973816e-08		2.1247069739292488e-07					5.977033836765626e-07	2.2503391467072655e-06				1.1610917266111758e-06			6.384783540077568e-08	4.7775094320024916e-08		2.183467946679625e-08		1.707893061923408e-07		1.8599143399735323e-07
monodelphis_domestica	11_0,15_1					1.0792675003942196e-07	0.0						8.188120764464242e-08			6.233767914300297e-08					1.80396066329229e-06					1.2589342514514416e-06										
homo_sapiens	11_0,15_1		3.012096168065997e-06	1.3840019986222072e-06	2.106678109955849e-07	6.684847360007934e-07	1.751306824948957e-07		5.8711614382492186e-08		1.1036565907357754e-06		1.2515564513434284e-06			4.88280111458162e-07	4.3497049938044823e-07	1.6853640588537572e-06	1.3800881207247273e-06	1.1124582541297073e-07	2.665395348116175e-06	3.565340007364138e-06	7.653364442692633e-07	9.861082713466715e-07	1.535211681774682e-07	7.632398371440495e-07	2.3718440761563555e-07	3.400452792351827e-07	3.600636207739993e-07		1.1159069773946172e-06	3.200673145437909e-07	9.967512120764028e-07		6.40002598418599e-07	
bos_taurus	11_0,15_1					1.7306213021173382e-06	4.5910430473755755e-08				1.0705999825756507e-06					6.32541538356259e-08					4.8398661167061844e-06	4.3640522220282985e-06					2.5586125687953357e-07		7.556691907363219e-08	2.658072255377278e-07		2.5198641217209256e-07				
rattus_norvegicus	11_0,15_1					5.042487184955423e-08	3.19282288195245e-08				1.6894309269980596e-07					8.804442023359736e-08					1.2508348435051985e-07	7.727092077448656e-07							1.7690098729679318e-08	5.374009728074209e-08		1.0834347229604325e-08				
mus_musculus	11_1,11_3,15_1	2.724109625008405e-07				2.2149209142572789e-07	9.426368536007802e-07		2.6809651790057643e-07	8.858183668414799e-08	2.1672580866709114e-07		3.030387137069335e-06	2.2940110610076438e-07		3.813634568873451e-07					1.2754463500765096e-06	2.8444485043397987e-06				1.8744836539842774e-06			1.3855164282541953e-07	1.8657169400072698e-07		1.2868637175951185e-07		1.8977835544620487e-07		8.025357529097279e-08
monodelphis_domestica	11_1,11_3,15_1					2.2297228096604214e-07	5.176253863526352e-07		1.2971078200876956e-07				3.7136276369249356e-07			9.496360202388808e-08					1.4104107476878956e-06					3.989440626227473e-07						2.2082024253977462e-07				
bos_taurus	11_1,11_3,15_1					6.743401594370488e-07	5.676459200540128e-07				5.395585417951124e-07					2.2204014587385238e-07					1.6293546199255265e-06	2.3767220590991263e-06					9.615707395221307e-07		2.469006493001121e-07	4.791814291340274e-07		8.49768099904499e-07				
gorilla_gorilla	11_1,11_3,15_1					2.595896916744756e-07			1.4808631435847808e-07						2.111631290724231e-07	1.2242300553254349e-07					1.5416067954412258e-06						8.69261372846218e-07					5.176637847314563e-07				
sus_scrofa	11_1,11_3,15_1					1.794961469318844e-07										7.621315475033594e-07			5.716591448049551e-07		9.104889773222347e-07	1.8156522410547832e-06					4.016487490169252e-07									
homo_sapiens	11_1,11_3,15_1		1.0594046274957065e-06	6.926111036919699e-07	4.427004006596308e-07	4.4140074730365303e-07	4.3650057197627845e-07		3.481182607222566e-08		3.363444688793148e-08		8.013505518254912e-07		6.643296841444023e-07	5.708796351401052e-07	2.0228722713317456e-07	2.1234651256604334e-06	2.1943957736504984e-06		8.198695490843939e-07	2.105888502083457e-06		2.1115351359148847e-07	9.417166385604392e-08	6.313842416901418e-07	4.2080254593446494e-07				1.607688655842973e-06	8.798591770747987e-07	4.0940919757245373e-07		4.2784519448111423e-07	
rattus_norvegicus	11_1,11_3,15_1					9.442954568320437e-08	5.247036895271765e-07				1.295946345199096e-07					2.93569330891127e-07					5.095014148542037e-07	3.75730071814884e-07							3.7897018720170385e-08	1.307673644405562e-07		3.521824108577709e-08				
gorilla_gorilla	11_1,15_1														3.2486635241911244e-08						6.295128855691844e-08						4.4099280357073634e-08									
sus_scrofa	11_1,15_1															2.4987919590274076e-08					1.2616624926665867e-07	0.0														
mus_musculus	11_1,15_1	5.4003965395347034e-08					3.564232213606395e-08						2.8613628768668855e-08			5.1948750894882167e-08					2.106121362196283e-08	6.770590138062718e-08												3.658076515328017e-08		3.687883230995804e-08
monodelphis_domestica	11_1,15_1												0.0								1.967749578021971e-07					1.2483013684652695e-07						0.0				
homo_sapiens	11_1,15_1		1.0965908481514077e-07	1.626800404409566e-08	4.508940530185576e-08	4.3271633177018885e-08	6.557902631188531e-08				5.3550384465654645e-08		1.3220691828942635e-07			7.724941544385277e-08		1.7370363469936967e-07	1.3201945040969743e-07		2.3428782872756617e-07	4.3309626937741443e-07	8.521254935439848e-08	3.525958530401541e-08	9.452528847723993e-08	7.330573695602097e-08	5.9296101903908886e-08				1.5669324924932136e-07	4.745269338091215e-08	1.7183939322754365e-07		1.3916990966188908e-08	
bos_taurus	11_1,15_1					5.38100229004977e-08															7.411748658134605e-08	6.606413707261986e-08					5.1172251375906704e-08					2.4401875562318342e-08				
sus_scrofa	5_1,11_3,15_1																				9.113356204882941e-07															
mus_musculus	5_1,11_3,15_1																				1.2517189780268836e-06	2.7620831787412863e-06														
sus_scrofa	5_1,15_1																				1.2616624926665867e-07															
mus_musculus	5_1,15_1																				4.6852230181821375e-08	1.0457364441524608e-08				3.557389460970475e-08										
mus_musculus	11_0,11_3,15_1	2.0278507136936237e-07				3.70179586279679e-07	4.5191299021944683e-07		1.3831653293315582e-07		3.436597593603888e-07	2.2785345530286267e-07	2.560963804004669e-06	2.676346237842251e-07		5.157771299833011e-07					2.3709849106195533e-06	4.580997862943078e-06				3.0207640221303305e-06			1.572397282379403e-07	2.2249673594161884e-07		1.1493668736868413e-07		3.151877707687426e-07		1.3167224010872508e-07
monodelphis_domestica	11_0,11_3,15_1					3.2378025011826593e-07	2.0877546089418356e-07		1.5171156139458513e-07				4.438780191690364e-07			1.6789904911587493e-07					1.289605061065653e-06					4.592177637539658e-07						2.3287079220799024e-07				
bos_taurus	11_0,11_3,15_1					8.422869710401706e-07	4.027079047462855e-07				5.693506337024517e-07					2.523716616621275e-07					2.2713294443549198e-06	4.231376013468489e-06					5.839187456065321e-07		3.874393744673932e-07	7.605927305623198e-07		5.278051745508038e-07				
gorilla_gorilla	11_0,11_3,15_1					3.4586552617006165e-07			1.949999857533631e-07						1.7867649383051183e-07	1.8280578415355997e-07					1.1726160965190783e-06						5.618388337762281e-07					2.489907910735382e-07				
sus_scrofa	11_0,11_3,15_1					2.399658136678218e-07										1.199420140333156e-06			7.475542662834029e-07		1.9778391230617335e-06	2.6756980394491535e-06					4.1384632140511125e-07									
homo_sapiens	11_0,11_3,15_1		1.5969307659880817e-06	7.75578068928092e-07	3.117699714715482e-07	2.6305750206578626e-07	2.761591404747032e-07		4.8060495282189665e-08		9.449909165015793e-08		5.99496255999472e-07		1.200866399931842e-07	5.054110121479842e-07	2.2340176560325215e-07	1.6910943199719267e-06	1.3475400948520694e-06		5.564454946216756e-07	1.7791151160600197e-06	1.5574442681677537e-07	3.3745610587071817e-07	1.2260717510551419e-07	6.977736535658548e-07	2.498208346440046e-07	2.2945696637476522e-07			1.5553230577689054e-06	3.305311721582229e-07	6.932441682225023e-07		4.34794558024102e-07	
rattus_norvegicus	11_0,11_3,15_1					1.4845668787696708e-07	2.582419338337649e-07				2.1977368887549315e-07					2.3280679392616977e-07					8.498967972074793e-07	1.1701725137142999e-06							1.1750246300372732e-07	1.8743728835372943e-07		2.998622154956349e-08				
mus_musculus	11_0,11_1,15_1	1.8437056888554957e-07					2.9302746724539724e-07						3.915765429886859e-07			6.966077643785334e-08					4.826645455153619e-08	1.500275957074452e-07														3.5409088077860385e-08
monodelphis_domestica	11_0,11_1,15_1												2.6944585353043094e-07								8.157894876364327e-07					4.4070825909174073e-07						1.1719866649007343e-07				
bos_taurus	11_0,11_1,15_1					1.1341381708185862e-07															4.684206070281602e-07	2.2455411261913878e-07					4.575658633540719e-07					2.512924646619577e-07				
gorilla_gorilla	11_0,11_1,15_1														1.1370322334668933e-07						6.397512171372248e-07						3.1590251230020745e-07									
sus_scrofa	11_0,11_1,15_1															8.74577185659593e-08					1.353891763587299e-07	9.556064426604121e-08														
homo_sapiens	11_0,11_1,15_1		2.9224093364150175e-07	1.775248291244496e-07	2.5332649329594954e-07	2.282082588599288e-07	2.525151598661717e-07				6.375653814986223e-08		7.3921159831772e-07			3.1388981494061095e-07		9.90377501745088e-07	1.166869185951778e-06		6.136968155121097e-07	1.1419579994253431e-06	1.1361673247253132e-07	5.150222748644028e-07	8.89332716385207e-08	4.614096693674302e-07	3.8792605320666877e-07				9.261305555095643e-07	6.291645327695576e-07	1.5413261368460003e-07		1.8086061175575182e-07	
sus_scrofa	5_1,11_3,15_1																				9.113356204882941e-07															
mus_musculus	5_1,11_3,15_1																				1.2517189780268836e-06	2.7620831787412863e-06														
mus_musculus	5_1,11_0,15_1	1.9662007966398991e-07				2.3657245980996335e-07	4.312542910507288e-07				2.2799091660935493e-07	8.202724390903055e-08	2.174499814433989e-06	4.460577063070418e-08		3.9330129304230007e-07					2.061500826128939e-06	4.837455956817556e-06				2.73400075317564e-06			1.3245107306455405e-07	2.409709767687125e-07		8.062629202899695e-08		3.5117492050221377e-07		2.6488247385066343e-07
monodelphis_domestica	5_1,11_0,15_1					3.0341953148262957e-07	2.13445894024577e-07						3.8188764757723413e-07			1.20701195305137e-07					2.587456632899435e-06					1.3348230738718528e-06										
bos_taurus	5_1,11_0,15_1					1.978755967668234e-06	1.1402244735684797e-07				1.4659297604582433e-06					2.242921546434279e-07					5.638633092628997e-06	5.875288715125777e-06					6.110826174817921e-07		1.7010163505098307e-07	5.04993244074416e-07		5.758215290787504e-07				
gorilla_gorilla	5_1,11_0,15_1					7.795312632111442e-07			2.0345081980354254e-07						3.0862303479815704e-07	1.8156269793567702e-07					3.3532134595231912e-06						4.910272102989764e-07					2.7085990505618264e-07				
sus_scrofa	5_1,11_0,15_1					3.3756050276783794e-07										9.370469846352784e-07			9.234493877618513e-07		7.870845403924204e-06	4.969153501834143e-06														
homo_sapiens	5_1,11_0,15_1		3.0191035078943242e-06	1.2196950131656065e-06	5.169658504310034e-07	8.702889327750259e-07	3.45970930487202e-07		6.157008315381028e-08		1.2207566926051706e-06		1.917862308112921e-06			9.502211980492568e-07	6.579828777948465e-07	3.036374745498542e-06	2.8240943588209535e-06	1.1532700172809482e-07	4.042166511628652e-06	5.605922758494877e-06	1.1168241344640111e-06	1.5041229291719102e-06	2.0840565905741721e-07	1.349374281959365e-06	3.5930856528200764e-07	7.229721394934106e-07	3.6046730095606234e-07		2.623054960812682e-06	7.042239547228235e-07	9.810285801621491e-07		6.991297197566672e-07	
rattus_norvegicus	5_1,11_0,15_1					2.3583900980241642e-07	3.3799557521086104e-07				3.9349981810498407e-07					3.860757593698636e-07					1.2646141294731925e-06	2.205093927997795e-06							8.354714570495763e-08	3.178702468286251e-07		6.519873560438831e-08				
sus_scrofa	5_1,11_3,15_1																				9.113356204882941e-07															
mus_musculus	5_1,11_3,15_1																				1.2517189780268836e-06	2.7620831787412863e-06														
mus_musculus	5_1,11_0,11_1,15_1	2.2493793112146536e-07					4.5853265990684954e-07						1.626200507064683e-06			2.3781781385579394e-07					1.2072770592281292e-06	2.5748759861142453e-06														1.3819722995323146e-07
monodelphis_domestica	5_1,11_0,11_1,15_1												4.0692859819022925e-07								1.667510525926482e-06					7.640428048252485e-07						1.8109534278538122e-07				
bos_taurus	5_1,11_0,11_1,15_1					8.179060891276159e-07															2.458080427536043e-06	2.611877811153844e-06					6.271452349307315e-07					4.674138584364412e-07				
gorilla_gorilla	5_1,11_0,11_1,15_1														2.2740644669337884e-07						1.8610437647057298e-06						4.938538680423822e-07									
sus_scrofa	5_1,11_0,11_1,15_1															5.497342309860301e-07					3.1001488926234676e-06	2.0386270776755457e-06														
homo_sapiens	5_1,11_0,11_1,15_1		1.203530905001885e-06	4.7014589531930167e-07	4.43305625486107e-07	5.09503215756372e-07	3.4061383273728395e-07				4.884566235914302e-07		1.354197120505951e-06			6.799806381738579e-07		2.1227134785445007e-06	2.2006129896069124e-06		2.215443768721783e-06	3.3101405028254336e-06	5.651817632012739e-07	1.0173940455753182e-06	1.470522310714692e-07	9.527760218365135e-07	4.1909494312057235e-07				1.994154685083292e-06	7.822365534803238e-07	4.245237252056985e-07		3.73326021535413e-07	
mus_musculus	11_0,11_1,11_3	2.940380662414049e-07				5.529590233757962e-08	8.11131444921159e-07		2.8269046946414886e-07	3.6909098618395e-08	1.0137728392468389e-07		1.7092802589002038e-06	2.5489011788973816e-08		1.0151821562784505e-07					8.298182532293276e-08	2.2433208381041967e-07				4.126824752372057e-07			7.911175051050762e-08	7.274299804573417e-08		9.315599654244668e-08				3.8450268293224406e-08
monodelphis_domestica	11_0,11_1,11_3					1.8837400055600938e-07	8.670021698452604e-07		1.2948139257815717e-07				4.4576128320857825e-07			5.7871414202444536e-08					1.4399148038855473e-06					5.973225464459e-07						1.8838724757937972e-07				
bos_taurus	11_0,11_1,11_3					2.863751100310139e-07	3.9518877266043887e-07				2.4612511095994915e-07					1.1651642186110252e-07					8.047366492356617e-07	3.6072883536069367e-07					9.344068676468709e-07		9.67429643206286e-08	1.6315425541315237e-07		7.32624289813466e-07				
gorilla_gorilla	11_0,11_1,11_3					2.0352779306553522e-07			1.889975850944579e-07						2.1116312907242308e-07	7.395103780667928e-08					1.41453280628035e-06						7.952686907951528e-07					6.585610157552086e-07				
sus_scrofa	11_0,11_1,11_3															1.9990335672219266e-07			1.7589512147844774e-07		1.3454253319267047e-07	2.3890161066510305e-07					1.6891794535406694e-07									
homo_sapiens	11_0,11_1,11_3		4.1273595586986437e-07	3.916526673481145e-07	4.1106081260791005e-07	4.5914419415866376e-07	4.267390024366191e-07		5.3516514163169223e-08		5.706274009165539e-08		1.2101844645039408e-06		1.2626219098291603e-06	4.90551597873577e-07	1.7530950689112748e-07	1.6600758345459492e-06	2.1885391215925015e-06		9.3788534951743e-07	1.7640307201255095e-06		6.23262031647785e-07	7.532276776863909e-08	7.722344644024768e-07	5.589077644971291e-07				1.4321408569950035e-06	1.2477164169943563e-06	1.4298947653220093e-07		3.4086765371847623e-07	
rattus_norvegicus	11_0,11_1,11_3					6.983796893487616e-08	7.368206266974241e-07				1.2581233597761495e-07					4.272152895444473e-07					2.438255165386071e-07	2.4669629987580414e-07							5.55871174498497e-08	1.272159512310372e-07		6.193557211983233e-08				
gorilla_gorilla	11_0,11_3					2.964561652886242e-07			2.0945322046244782e-07						1.6243317620955618e-07	2.1936694098427195e-07					8.745330689988733e-07						3.879865592069845e-07					2.2056094289610047e-07				
sus_scrofa	11_0,11_3					1.990150847518877e-07										1.1244563815623338e-06			6.156329251745671e-07		2.2591732544135377e-06	2.0067735295868647e-06					2.139592044986812e-07									
mus_musculus	11_0,11_3	1.3408717784410148e-07				3.672026428599733e-07	9.040255072492087e-08		6.923053152365095e-08		3.1503385922749643e-07	3.0988069921189325e-07	1.725174394462373e-06	1.0195604715589526e-07		3.8449097546677753e-07					2.281569076250843e-06	3.689413594793134e-06				2.9090292120536605e-06			1.5772713161000443e-07	1.816115249171737e-07		9.896026493458542e-08		2.8633098192844844e-07		1.4579852237619069e-07
monodelphis_domestica	11_0,11_3					3.095426883438696e-07	1.0074833859379279e-07		1.3016956086999434e-07				4.976613703093803e-07			1.7766419803092533e-07					1.203414217055941e-06					5.586061138172824e-07						1.6647826151504382e-07				
homo_sapiens	11_0,11_3		1.4257014062566169e-06	6.104576109636697e-07	9.869718554961166e-08	1.4845701329875523e-07	9.334384844962957e-08		5.8711614382492186e-08		1.6189207787369388e-07		6.704440590098298e-07		8.055886914579657e-08	2.9963573532554265e-07	2.2056752151448088e-07	6.483586889240786e-07	4.816479640942864e-07		3.5581678781277005e-07	1.0236949387308733e-06	1.2731209191435106e-07	5.04344283429239e-07	1.2417530323641724e-07	8.277341507775399e-07	5.9296101903908886e-08	2.5296585815633743e-07			1.0639826560720644e-06	1.859004519973579e-07	7.172230602228427e-07		3.478298019776134e-07	
bos_taurus	11_0,11_3					7.356262320050518e-07	2.0779285832925727e-07				3.0038496336706877e-07					2.4722269044260016e-07					2.030699219855136e-06	4.047721491294454e-06					2.495502721303075e-07		4.2969285857557707e-07	7.864247387654108e-07		3.4313967515794467e-07				
rattus_norvegicus	11_0,11_3					1.8478892033733596e-07	5.016160187833888e-08				2.521433587767381e-07					1.6410560434144834e-07					7.817381595266247e-07	1.675316638521147e-06							1.945910860264725e-07	2.506199176606328e-07		2.7456176231187926e-08				
mus_musculus	11_0,11_1,11_3,15_1	2.8651969912581104e-07				1.6124944479151464e-07	8.118954398520969e-07		2.575944910903195e-07	6.889698408767066e-08	1.9168007578088297e-07		2.2717712437824572e-06	1.6143040799683417e-07		2.833665719185049e-07					8.754547985447096e-07	1.9737487662379535e-06				1.3192879275604706e-06			1.0499194196229714e-07	1.3628931435251077e-07		1.0574170096255873e-07				6.481549814256944e-08
monodelphis_domestica	11_0,11_1,11_3,15_1					2.3825527100156033e-07	6.83602307628365e-07		1.440721156918301e-07				4.27205744815283e-07			9.12922428685712e-08					1.4185418376154864e-06					5.181581688608165e-07						2.25345939353232e-07				
bos_taurus	11_0,11_1,11_3,15_1					5.072326433791057e-07	4.626668321613971e-07				4.4352217531924433e-07					1.6351782553461995e-07					1.3738109891086756e-06	1.7121627354546368e-06					9.290336514588328e-07		1.7955727300015552e-07	3.536897443951779e-07		7.25906417856865e-07				
gorilla_gorilla	11_0,11_1,11_3,15_1					2.674434910608565e-07			1.8618064041106475e-07						2.057486898654379e-07	9.804890097873551e-08					1.4332549121999942e-06						7.754094966452591e-07					5.315142235871311e-07				
sus_scrofa	11_0,11_1,11_3,15_1															5.580635375161212e-07			4.1042195011637806e-07		6.551966860317568e-07	1.2741419235472163e-06					3.1718977633989175e-07									
homo_sapiens	11_0,11_1,11_3,15_1		8.645440124864252e-07	5.746679538629144e-07	4.4898812753643495e-07	4.319821263833816e-07	4.3748414579100497e-07		4.814746816940853e-08		4.707719520331092e-08		9.829724606656654e-07		8.949527434996309e-07	5.640964949058599e-07	1.9228500782475945e-07	2.017993873370558e-06	2.1968368229316183e-06		8.776149668218139e-07	2.0208655778800617e-06		4.7236399720258913e-07	9.056152750396312e-08	7.040940283863743e-07	5.193870321261195e-07				1.636981724485251e-06	9.901982421026e-07	3.1841474309552134e-07		4.0116487383584774e-07	
rattus_norvegicus	11_0,11_1,11_3,15_1					8.393346442878353e-08	6.466545063946797e-07				1.463428969764927e-07					3.853128541999286e-07					4.685688226551827e-07	3.861403295530204e-07							5.0529358293560514e-08	1.2622885383630017e-07		5.2129137035867905e-08				
gorilla_gorilla	11_0,15_1					3.732378652677909e-07			8.18225414719597e-08						1.6243317620955625e-07	9.611521130647309e-08					2.402798059203643e-06						1.3229784107122088e-07					5.0235540494360535e-08				
sus_scrofa	11_0,15_1					2.342272538400388e-07										3.9980671344438506e-07			6.156329251745675e-07		6.7120224826954686e-06	4.013547059173732e-06														
mus_musculus	11_0,15_1	8.716750373468295e-08				1.1709987740887392e-07	7.296553687170332e-08	4.255901211340138e-08			9.597235071036064e-08	7.291310569691606e-08	2.5355119365129986e-07	2.5489011788973816e-08		2.1247069739292488e-07					5.977033836765626e-07	2.2503391467072655e-06				1.1610917266111758e-06			6.384783540077568e-08	4.7775094320024916e-08		2.183467946679625e-08		1.707893061923408e-07		1.8599143399735323e-07
monodelphis_domestica	11_0,15_1					1.0792675003942196e-07	0.0						8.188120764464242e-08			6.233767914300297e-08					1.80396066329229e-06					1.2589342514514416e-06										
homo_sapiens	11_0,15_1		3.012096168065997e-06	1.3840019986222072e-06	2.106678109955849e-07	6.684847360007934e-07	1.751306824948957e-07		5.8711614382492186e-08		1.1036565907357754e-06		1.2515564513434284e-06			4.88280111458162e-07	4.3497049938044823e-07	1.6853640588537572e-06	1.3800881207247273e-06	1.1124582541297073e-07	2.665395348116175e-06	3.565340007364138e-06	7.653364442692633e-07	9.861082713466715e-07	1.535211681774682e-07	7.632398371440495e-07	2.3718440761563555e-07	3.400452792351827e-07	3.600636207739993e-07		1.1159069773946172e-06	3.200673145437909e-07	9.967512120764028e-07		6.40002598418599e-07	
bos_taurus	11_0,15_1					1.7306213021173382e-06	4.5910430473755755e-08				1.0705999825756507e-06					6.32541538356259e-08					4.8398661167061844e-06	4.3640522220282985e-06					2.5586125687953357e-07		7.556691907363219e-08	2.658072255377278e-07		2.5198641217209256e-07				
rattus_norvegicus	11_0,15_1					5.042487184955423e-08	3.19282288195245e-08				1.6894309269980596e-07					8.804442023359736e-08					1.2508348435051985e-07	7.727092077448656e-07							1.7690098729679318e-08	5.374009728074209e-08		1.0834347229604325e-08				
mus_musculus	11_0,11_1,15_1	1.8437056888554957e-07					2.9302746724539724e-07						3.915765429886859e-07			6.966077643785334e-08					4.826645455153619e-08	1.500275957074452e-07														3.5409088077860385e-08
monodelphis_domestica	11_0,11_1,15_1												2.6944585353043094e-07								8.157894876364327e-07					4.4070825909174073e-07						1.1719866649007343e-07				
bos_taurus	11_0,11_1,15_1					1.1341381708185862e-07															4.684206070281602e-07	2.2455411261913878e-07					4.575658633540719e-07					2.512924646619577e-07				
gorilla_gorilla	11_0,11_1,15_1														1.1370322334668933e-07						6.397512171372248e-07						3.1590251230020745e-07									
sus_scrofa	11_0,11_1,15_1															8.74577185659593e-08					1.353891763587299e-07	9.556064426604121e-08														
homo_sapiens	11_0,11_1,15_1		2.9224093364150175e-07	1.775248291244496e-07	2.5332649329594954e-07	2.282082588599288e-07	2.525151598661717e-07				6.375653814986223e-08		7.3921159831772e-07			3.1388981494061095e-07		9.90377501745088e-07	1.166869185951778e-06		6.136968155121097e-07	1.1419579994253431e-06	1.1361673247253132e-07	5.150222748644028e-07	8.89332716385207e-08	4.614096693674302e-07	3.8792605320666877e-07				9.261305555095643e-07	6.291645327695576e-07	1.5413261368460003e-07		1.8086061175575182e-07	
gorilla_gorilla	11_0,15_1					3.732378652677909e-07			8.18225414719597e-08						1.6243317620955625e-07	9.611521130647309e-08					2.402798059203643e-06						1.3229784107122088e-07					5.0235540494360535e-08				
sus_scrofa	11_0,15_1					2.342272538400388e-07										3.9980671344438506e-07			6.156329251745675e-07		6.7120224826954686e-06	4.013547059173732e-06														
mus_musculus	11_0,15_1	8.716750373468295e-08				1.1709987740887392e-07	7.296553687170332e-08	4.255901211340138e-08			9.597235071036064e-08	7.291310569691606e-08	2.5355119365129986e-07	2.5489011788973816e-08		2.1247069739292488e-07					5.977033836765626e-07	2.2503391467072655e-06				1.1610917266111758e-06			6.384783540077568e-08	4.7775094320024916e-08		2.183467946679625e-08		1.707893061923408e-07		1.8599143399735323e-07
monodelphis_domestica	11_0,15_1					1.0792675003942196e-07	0.0						8.188120764464242e-08			6.233767914300297e-08					1.80396066329229e-06					1.2589342514514416e-06										
homo_sapiens	11_0,15_1		3.012096168065997e-06	1.3840019986222072e-06	2.106678109955849e-07	6.684847360007934e-07	1.751306824948957e-07		5.8711614382492186e-08		1.1036565907357754e-06		1.2515564513434284e-06			4.88280111458162e-07	4.3497049938044823e-07	1.6853640588537572e-06	1.3800881207247273e-06	1.1124582541297073e-07	2.665395348116175e-06	3.565340007364138e-06	7.653364442692633e-07	9.861082713466715e-07	1.535211681774682e-07	7.632398371440495e-07	2.3718440761563555e-07	3.400452792351827e-07	3.600636207739993e-07		1.1159069773946172e-06	3.200673145437909e-07	9.967512120764028e-07		6.40002598418599e-07	
bos_taurus	11_0,15_1					1.7306213021173382e-06	4.5910430473755755e-08				1.0705999825756507e-06					6.32541538356259e-08					4.8398661167061844e-06	4.3640522220282985e-06					2.5586125687953357e-07		7.556691907363219e-08	2.658072255377278e-07		2.5198641217209256e-07				
rattus_norvegicus	11_0,15_1					5.042487184955423e-08	3.19282288195245e-08				1.6894309269980596e-07					8.804442023359736e-08					1.2508348435051985e-07	7.727092077448656e-07							1.7690098729679318e-08	5.374009728074209e-08		1.0834347229604325e-08				
mus_musculus	11_0,11_1,15_1	1.8437056888554957e-07					2.9302746724539724e-07						3.915765429886859e-07			6.966077643785334e-08					4.826645455153619e-08	1.500275957074452e-07														3.5409088077860385e-08
monodelphis_domestica	11_0,11_1,15_1												2.6944585353043094e-07								8.157894876364327e-07					4.4070825909174073e-07						1.1719866649007343e-07				
bos_taurus	11_0,11_1,15_1					1.1341381708185862e-07															4.684206070281602e-07	2.2455411261913878e-07					4.575658633540719e-07					2.512924646619577e-07				
gorilla_gorilla	11_0,11_1,15_1														1.1370322334668933e-07						6.397512171372248e-07						3.1590251230020745e-07									
sus_scrofa	11_0,11_1,15_1															8.74577185659593e-08					1.353891763587299e-07	9.556064426604121e-08														
homo_sapiens	11_0,11_1,15_1		2.9224093364150175e-07	1.775248291244496e-07	2.5332649329594954e-07	2.282082588599288e-07	2.525151598661717e-07				6.375653814986223e-08		7.3921159831772e-07			3.1388981494061095e-07		9.90377501745088e-07	1.166869185951778e-06		6.136968155121097e-07	1.1419579994253431e-06	1.1361673247253132e-07	5.150222748644028e-07	8.89332716385207e-08	4.614096693674302e-07	3.8792605320666877e-07				9.261305555095643e-07	6.291645327695576e-07	1.5413261368460003e-07		1.8086061175575182e-07	
mus_musculus	11_0,11_3,15_1	2.0278507136936237e-07				3.70179586279679e-07	4.5191299021944683e-07		1.3831653293315582e-07		3.436597593603888e-07	2.2785345530286267e-07	2.560963804004669e-06	2.676346237842251e-07		5.157771299833011e-07					2.3709849106195533e-06	4.580997862943078e-06				3.0207640221303305e-06			1.572397282379403e-07	2.2249673594161884e-07		1.1493668736868413e-07		3.151877707687426e-07		1.3167224010872508e-07
monodelphis_domestica	11_0,11_3,15_1					3.2378025011826593e-07	2.0877546089418356e-07		1.5171156139458513e-07				4.438780191690364e-07			1.6789904911587493e-07					1.289605061065653e-06					4.592177637539658e-07						2.3287079220799024e-07				
bos_taurus	11_0,11_3,15_1					8.422869710401706e-07	4.027079047462855e-07				5.693506337024517e-07					2.523716616621275e-07					2.2713294443549198e-06	4.231376013468489e-06					5.839187456065321e-07		3.874393744673932e-07	7.605927305623198e-07		5.278051745508038e-07				
gorilla_gorilla	11_0,11_3,15_1					3.4586552617006165e-07			1.949999857533631e-07						1.7867649383051183e-07	1.8280578415355997e-07					1.1726160965190783e-06						5.618388337762281e-07					2.489907910735382e-07				
sus_scrofa	11_0,11_3,15_1					2.399658136678218e-07										1.199420140333156e-06			7.475542662834029e-07		1.9778391230617335e-06	2.6756980394491535e-06					4.1384632140511125e-07									
homo_sapiens	11_0,11_3,15_1		1.5969307659880817e-06	7.75578068928092e-07	3.117699714715482e-07	2.6305750206578626e-07	2.761591404747032e-07		4.8060495282189665e-08		9.449909165015793e-08		5.99496255999472e-07		1.200866399931842e-07	5.054110121479842e-07	2.2340176560325215e-07	1.6910943199719267e-06	1.3475400948520694e-06		5.564454946216756e-07	1.7791151160600197e-06	1.5574442681677537e-07	3.3745610587071817e-07	1.2260717510551419e-07	6.977736535658548e-07	2.498208346440046e-07	2.2945696637476522e-07			1.5553230577689054e-06	3.305311721582229e-07	6.932441682225023e-07		4.34794558024102e-07	
rattus_norvegicus	11_0,11_3,15_1					1.4845668787696708e-07	2.582419338337649e-07				2.1977368887549315e-07					2.3280679392616977e-07					8.498967972074793e-07	1.1701725137142999e-06							1.1750246300372732e-07	1.8743728835372943e-07		2.998622154956349e-08				
